<Actel_Data_File>
    <format name="NVM File" version="01.00.00"/>
    <header>
        <die>
            MPF300TS
        </die>
        <family>
            PolarFire
        </family>
        <module>
            snvm
        </module>
        <package>
            FCG1152
        </package>
        <version>
            12.800.0.16
        </version>
    </header>
    <nvm>
        <region name="INIT_STAGE_2_SNVM_CLIENT" address="0x000000" retrieveAddressFromFile="false" size="3500" format="HEX" type="PlainText NonAuthenticated" wordSize="8" numberWords="3500" memFile="designer\top\top_init_stage_2_snvm.mem" memType="Microsemi Binary 32-bit" memFileTimeStamp="" clientType="public" program="true">
            <write_protect/>
            020006c01100e600020200b008000501020006c003010000020200b00000
            0501020006c003010000020200b000000500020006c003010000020200b0
            00f00401020006c003010000020200b000f00400020006c02f0000000202
            00b04c800401020006c02f000000020200b04c200401020006c02f000000
            020200b04c100401020006c02f000000020200b04c400401020006c00600
            0000020200b078800401020006c006000000020200b078200401020006c0
            06000000020200b078100401020006c006000000020200b0784004010200
            06c003000000020200b06c800400020006c003000000020200b06c200400
            020006c003000000020200b06c100400020006c003000000020200b06c40
            0400020006c002001100020200b014a00003020006c000001000020200b0
            14a00003020006c00000018c020200b0a4810003020006c0000000000202
            00b0e0800003020006c000080000020200b008010502020006c006000500
            020200b00c000502020006c012000000020200b010800400020006c0001e
            0000020200b058800400020006c045000000020200b034800401020006c0
            32020000020200b040800401020006c000000000020200b0c08004010200
            06c000000011020200b09c800401020006c010010000020200b080800401
            020006c000000000020200b090010502020006c015000000020200b00880
            0401020006c04f010000020200b00c800401020006c015000000020200b0
            10800401020006c000000000020200b014800401020006c0004f00000202
            00b018800401020006c001320100020200b0e0800401020006c000000000
            020200b0dc800401020006c016073fff020200b0d0800401020006c01d49
            0101020200b0d4800401020006c010004000020200b0d8800401020006c0
            01000000020200b024800401020006c001000000020200b02c8004010200
            06c0b7000000020200b030800401020006c041000000020200b034800401
            020006c0e8030000020200b038800401020006c032020000020200b04080
            0401020006c000000000020200b0c0800401020006c000000009020200b0
            9c800401020006c00a241b00020200b0a4800401020006c003021b000202
            00b0ac800401020006c0141b3b00020200b0b0800401020006c00d000000
            020200b0a0800401020006c000000000020200b098800401020006c00073
            0000020200b090800401020006c000080000020200b008010502020006c0
            06000500020200b00c000502020006c012000000020200b0102004000200
            06c0001e0000020200b058200400020006c045000000020200b034200401
            020006c032020000020200b040200401020006c000000000020200b0c020
            0401020006c000000011020200b09c200401020006c010010000020200b0
            80200401020006c000000000020200b090010502020006c0150000000202
            00b008200401020006c04f010000020200b00c200401020006c015000000
            020200b010200401020006c000000000020200b014200401020006c0004f
            0000020200b018200401020006c001320100020200b0e0200401020006c0
            00000000020200b0dc200401020006c016073fff020200b0d02004010200
            06c01d490101020200b0d4200401020006c010004000020200b0d8200401
            020006c001000000020200b024200401020006c001000000020200b02c20
            0401020006c0b7000000020200b030200401020006c041000000020200b0
            34200401020006c0e8030000020200b038200401020006c0320200000202
            00b040200401020006c000000000020200b0c0200401020006c000000009
            020200b09c200401020006c00a241b00020200b0a4200401020006c00302
            1b00020200b0ac200401020006c0141b3b00020200b0b0200401020006c0
            0d000000020200b0a0200401020006c000000000020200b0982004010200
            06c000730000020200b090200401020006c000080000020200b008010502
            020006c006000500020200b00c000502020006c012000000020200b01010
            0400020006c0001e0000020200b058100400020006c045000000020200b0
            34100401020006c032020000020200b040100401020006c0000000000202
            00b0c0100401020006c000000011020200b09c100401020006c010010000
            020200b080100401020006c000000000020200b090010502020006c01500
            0000020200b008100401020006c04f010000020200b00c100401020006c0
            15000000020200b010100401020006c000000000020200b0141004010200
            06c0004f0000020200b018100401020006c001320100020200b0e0100401
            020006c000000000020200b0dc100401020006c016073fff020200b0d010
            0401020006c01d490101020200b0d4100401020006c010004000020200b0
            d8100401020006c001000000020200b024100401020006c0010000000202
            00b02c100401020006c0b7000000020200b030100401020006c041000000
            020200b034100401020006c0e8030000020200b038100401020006c03202
            0000020200b040100401020006c000000000020200b0c0100401020006c0
            00000009020200b09c100401020006c00a241b00020200b0a41004010200
            06c003021b00020200b0ac100401020006c0141b3b00020200b0b0100401
            020006c00d000000020200b0a0100401020006c000000000020200b09810
            0401020006c000730000020200b090100401020006c000080000020200b0
            08010502020006c006000500020200b00c000502020006c0120000000202
            00b010400400020006c0001e0000020200b058400400020006c045000000
            020200b034400401020006c032020000020200b040400401020006c00000
            0000020200b0c0400401020006c000000011020200b09c400401020006c0
            10010000020200b080400401020006c000000000020200b0900105020200
            06c015000000020200b008400401020006c04f010000020200b00c400401
            020006c015000000020200b010400401020006c000000000020200b01440
            0401020006c0004f0000020200b018400401020006c001320100020200b0
            e0400401020006c000000000020200b0dc400401020006c016073fff0202
            00b0d0400401020006c01d490101020200b0d4400401020006c010004000
            020200b0d8400401020006c001000000020200b024400401020006c00100
            0000020200b02c400401020006c0b7000000020200b030400401020006c0
            41000000020200b034400401020006c0e8030000020200b0384004010200
            06c032020000020200b040400401020006c000000000020200b0c0400401
            020006c000000009020200b09c400401020006c00a241b00020200b0a440
            0401020006c003021b00020200b0ac400401020006c0141b3b00020200b0
            b0400401020006c00d000000020200b0a0400401020006c0000000000202
            00b098400401020006c000730000020200b090400401020006c00000f000
            020200b090010502020006c01f000000020200b000860003020006c00000
            0003020200b008860003020006c004000000020200b010860003020006c0
            00000000020200b020860003020006c004000000020200b0308600030200
            06c027000000020200b040860003020006c000000010020200b048860003
            020006c000000000020200b060860003020006c004000000020200b07086
            0003020006c000000000020200b0a0860003020006c00c00ffff020200b0
            e4800003020006c00c00f0ff020200b0ec800003020006c0aa1156150202
            00b098800003020006c000000000020200b09c800003020006c000000000
            020200b0a0800003020006c024000080020200b0a8800003020006c00008
            0000020200b008010502020006c00000401f020200b008a00003020006c0
            ffff0000020200b034a00003020006c000910000020200b004a000030200
            06c0aa115615020200b084a00003020006c007000700020200b04ca10003
            020006c000700000020200b0a0a00003020006c010000000020200b0a4a0
            0003020006c0ffff0000020200b02ca00003020006c000000000020200b0
            00000501020006c000000000020200b000f00401020006c0000000000202
            00b000000500020006c000000000020200b000f00400020006c03f000000
            020200b04c800401020006c03f000000020200b04c200401020006c03f00
            0000020200b04c100401020006c03f000000020200b04c400401020006c0
            1100e000020200b008000501020006c03e000000020200b04c8004010200
            06c03e000000020200b04c200401020006c03e000000020200b04c100401
            020006c03e000000020200b04c400401020006c002000000020200b07880
            0401020006c002000000020200b078200401020006c002000000020200b0
            78100401020006c002000000020200b078400401020006c0110080000202
            00b008000501020006c03c000000020200b04c800401020006c03c000000
            020200b04c200401020006c03c000000020200b04c100401020006c03c00
            0000020200b04c400401020006c001000000020200b078800401020006c0
            01000000020200b078200401020006c001000000020200b0781004010200
            06c001000000020200b078400401020006c047030303020200b088800400
            020006c000000000020200b06c800400020006c047030303020200b08820
            0400020006c000000000020200b06c200400020006c047030303020200b0
            88100400020006c000000000020200b06c100400020006c0470303030202
            00b088400400020006c000000000020200b06c400400020000d0000006c0
            09000000000202b000000000020000d0000000f0
            <crc>
                5730
            </crc>
        </region>
        <region name="INIT_STAGE_1_SNVM_CLIENT" address="0x0000ca" retrieveAddressFromFile="false" size="4368" format="HEX" type="PlainText NonAuthenticated" wordSize="8" numberWords="4368" memFile="designer\top\top_init_stage_1_snvm.mem" memType="Microsemi Binary 32-bit" memFileTimeStamp="" clientType="public" program="true">
            <write_protect/>
            000010c032000000010010c032000000020010c032000000060010c03200
            0000070010c032000000000f11c0b80b0000ff3f0c120000002000000000
            000000000000000000000000000000000000000000000000000000000000
            000000000000000000000000000000000000000000000000000000000000
            000000000000000000000000000000000000000000000000000000000000
            000000000000000000000000000000000000000000000000000000000000
            000000000000000000000000000000000000000000000000000000000000
            000000000000000000000000000000000000000000000000000000000000
            000000000000000000000000000000000000000000000000000000000000
            000000000000000000000000000000000000000000000000000000000000
            000000000000000000000000000000000000000000000000000000000000
            000000000000000000000000000000000000000000000000000000000000
            000000000000000000000000000000000000000000000000000000000000
            000000000000000000000000000000000000000000000000000000000000
            000000000000000000000000000000000000000000000000000000000000
            000000000000000000000000000000000000000000000000000000000000
            000000000000000000000000000000000000000000000000000000000000
            000000000000000000000000000000000000000000000000000000000000
            000000000000000000000000000000000000000000000000000000000000
            000000000000000000000000000000000000000000000000000000000000
            000000000000000000000000000000000000000000000000000000000000
            000000000000000000000000000000000000000000000000000000000000
            000000000000000000000000000000000000000000000000000000000000
            000000000000000000000000000000000000000000000000000000000000
            000000000000000000000000000000000000000000000000000000000000
            000000000000000000000000000000000000000000000000000000000000
            000000000000000000000000000000000000000000000000000000000000
            000000000000000000000000000000000000000000000000000000000000
            000000000000000000000000000000000000000000000000000000000000
            000000000000000000000000000000000000000000000000000000000000
            000000000000000000000000000000000000000000000000000000000000
            000000000000000000000000000000000000000000000000000000000000
            000000000000000000000000000000000000000000000000000000000000
            000000000000000000000000000000000000000000000000000000000000
            000000000000000000000000000000000000000000000000000000000000
            000000000000000000000000000000000000000000000000000000000000
            000000000000000000000000000000000000000000000000000000000000
            000000000000000000000000000000000000000000000000000000000000
            000000000000000000000000000000000000000000000000000000000000
            000000000000000000000000000000000000000000000000000000000000
            000000000000000000000000000000000000000000000000000000000000
            000000000000000000000000000000000000000000000000000000000000
            000000000000000000000000000000000000000000000000000000000000
            000000000000000000000000000000000000000000000000000000000000
            000000000000000000000000000000000000000000000000000000000000
            000000000000000000000000000000000000000000000000000000000000
            000000000000000000000000000000000000000000000000000000000000
            000000000000000000000000000000000000000000000000000000000000
            000000000000000000000000000000000000000000000000000000000000
            000000000000000000000000000000000000000000000000000000000000
            000000000000000000000000000000000000000000000000000000000000
            000000000000000000000000000000000000000000000000000000000000
            000000000000000000000000000000000000000000000000000000000000
            000000000000000000000000000000000000000000000000000000000000
            000000000000000000000000000000000000000000000000000000000000
            000000000000000000000000000000000000000000000000000000000000
            000000000000000000000000000000000000000000000000000000000000
            000000000000000000000000000000000000000000000000000000000000
            000000000000000000000000000000000000000000000000000000000000
            000000000000000000000000000000000000000000000000000000000000
            000000000000000000000000000000000000000000000000000000000000
            000000000000000000000000000000000000000000000000000000000000
            000000000000000000000000000000000000000000000000000000000000
            000000000000000000000000000000000000000000000000000000000000
            000000000000000000000000000000000000000000000000000000000000
            000000000000000000000000000000000000000000000000000000000000
            000000000000000000000000000000000000000000000000000000000000
            000000000000000000000000000000000000000000000000000000000000
            000000000000000000000000000000000000000000000000000000000000
            000000000000000000000000000000000000000000000000000000000000
            000000000000000000000000000000000000000000000000000000000000
            000000000000000000000000000000000000000000000000000000000000
            000000000000000000000000000000000000000000000000000000000000
            000000000000000000000000000000000000000000000000000000000000
            000000000000000000000000000000000000000000000000000000000000
            000000000000000000000000000000000000000000000000000000000000
            000000000000000000000000000000000000000000000000000000000000
            000000000000000000000000000000000000000000000000000000000000
            000000000000000000000000000000000000000000000000000000000000
            000000000000000000000000000000000000000000000000000000000000
            000000000000000000000000000000000000000000000000000000000000
            000000000000000000000000000000000000000000000000000000000000
            000000000000000000000000000000000000000000000000000000000000
            000000000000000000000000000000000000000000000000000000000000
            000000000000000000000000000000000000000000000000000000000000
            000000000000000000000000000000000000000000000000000000000000
            000000000000000000000000000000000000000000000000000000000000
            000000000000000000000000000000000000000000000000000000000000
            000000000000000000000000000000000000000000000000000000000000
            000000000000000000000000000000000000000000000000000000000000
            000000000000000000000000000000000000000000000000000000000000
            000000000000000000000000000000000000000000000000000000000000
            000000000000000000000000000000000000000000000000000000000000
            000000000000000000000000000000000000000000000000000000000000
            000000000000000000000000000000000000000000000000000000000000
            000000000000000000000000000000000000000000000000000000000000
            000000000000000000000000000000000000000000000000000000000000
            000000000000000000000000000000000000000000000000000000000000
            000000000000000000000000000000000000000000000000000000000000
            000000000000000000000000000000000000000000000000000000000000
            000000000000000000000000000000000000000000000000000000000000
            000000000000000000000000000000000000000000000000000000000000
            000000000000000000000000000000000000000000000000000000000000
            000000000000000000000000000000000000000000000000000000000000
            000000000000000000000000000000000000000000000000000000000000
            000000000000000000000000000000000000000000000000000000000000
            000000000000000000000000000000000000000000000000000000000000
            000000000000000000000000000000000000000000000000000000000000
            000000000000000000000000000000000000000000000000000000000000
            000000000000000000000000000000000000000000000000000000000000
            000000000000000000000000000000000000000000000000000000000000
            000000000000000000000000000000000000000000000000000000000000
            000000000000000000000000000000000000000000000000000000000000
            000000000000000000000000000000000000000000000000000000000000
            000000000000000000000000000000000000000000000000000000000000
            000000000000000000000000000000000000000000000000000000000000
            000000000000000000000000000000000000000000000000000000000000
            000000000000000000000000000000000000000000000000000000000000
            000000000000000000000000000000000000000000000000000000000000
            000000000000000000000000000000000000000000000000000000000000
            000000000000000000000000000000000000000000000000000000000000
            000000000000000000000000000000000000000000000000000000000000
            000000000000000000000000000000000000000000000000000000000000
            000000000000000000000000000000000000000000000000000000000000
            000000000000000000000000000000000000000000000000000000000000
            000000000000000000000000000000000000000000000000000000000000
            000000000000000000000000000000000000000000000000000000000000
            000000000000000000000000000000000000000000000000000000000000
            000000000000000000000000000000000000000000000000000000000000
            000000000000000000000000000000000000000000000000000000000000
            000000000000000000000000000000000000000000000000000000000000
            000000000000000000000000000000000000000000000000000000000000
            000000000000000000000000000000000000000000000000000000000000
            000000000000000000000000000000000000000000000000000000000000
            000000000000000000000000000000000000000000000000000000000000
            000000000000000000000000000000000000000000000000000000000000
            000000000000000000000000000000000000000000000000000000000000
            000000000000000000000000000000000000000000000000000000000000
            000000000000000000000000ff3f0c32ff3f0c42ff3f0c52010000200000
            000000000000000000000000000000000000000000000000000000000000
            000000000000000000000000000000000000000000000000000000000000
            000000000000000000000000000000000000000000000000000000000000
            000000000000000000000000000000000000000000000000000000000000
            000000000000ff3f0c62ff3f0c72000006c001000000000202b000000000
            020006c004040404020200b048600003020006c000000700020200b04c61
            0003000006c000000000030000e000000000
            <crc>
                19a7
            </crc>
        </region>
    </nvm>
</Actel_Data_File>
