<Actel_Data_File>
    <format name="NVM File" version="01.00.00"/>
    <header>
        <die>
            MPF100T
        </die>
        <family>
            PolarFire
        </family>
        <module>
            snvm
        </module>
        <package>
            FCVG484
        </package>
        <version>
            2021.2.0.11
        </version>
    </header>
    <nvm>
        <region name="INIT_STAGE_2_SNVM_CLIENT" address="0x000000" retrieveAddressFromFile="false" size="1692" format="HEX" type="PlainText NonAuthenticated" wordSize="8" numberWords="1692" memFile="designer\top\top_init_stage_2_snvm.mem" memType="Microsemi Binary 32-bit" memFileTimeStamp="" clientType="public" program="true">
            <write_protect/>
            <fabric_accessible/>
            <mss_accessible/>
            020006c01100e600020200b008000501020006c003010000020200b00000
            0501020006c003010000020200b000000500020006c003010000020200b0
            00c00401020006c003010000020200b000c00400020006c02f0000000202
            00b04c800401020006c02f000000020200b04c400401020006c006000000
            020200b078800401020006c006000000020200b078400401020006c00300
            0000020200b06c800400020006c003000000020200b06c400400020006c0
            02001100020200b014a00003020006c000001000020200b014a000030200
            06c00000018c020200b0a4810003020006c000000000020200b0e0800003
            020006c002010000020200b004000502020006c002000000020200b09440
            0400020006c002000000020200b094800400020006c00f003088020200b0
            00010502020006c000080000020200b008010502020006c006020a020202
            00b00c000502020006c008000000020200b008000502020006c000000000
            020200b090010502020006c012000000020200b010800400020006c0001e
            0000020200b058800400020006c045000000020200b034800401020006c0
            00000000020200b0c0800401020006c000000011020200b09c8004010200
            06c010010000020200b080800401020006c00f003088020200b000010502
            020006c000080000020200b008010502020006c006020a02020200b00c00
            0502020006c008000000020200b008000502020006c012000000020200b0
            10400400020006c0001e0000020200b058400400020006c0450000000202
            00b034400401020006c032020000020200b040400401020006c000000000
            020200b0c0400401020006c000000011020200b09c400401020006c01001
            0000020200b080400401020006c000000000020200b090010502020006c0
            15000000020200b008400401020006c04f010000020200b00c4004010200
            06c015000000020200b010400401020006c000000000020200b014400401
            020006c0004f0000020200b018400401020006c001320100020200b0e040
            0401020006c000000000020200b0dc400401020006c016073fff020200b0
            d0400401020006c01d490101020200b0d4400401020006c0100040000202
            00b0d8400401020006c001000000020200b024400401020006c001000000
            020200b02c400401020006c0b7000000020200b030400401020006c04100
            0000020200b034400401020006c0e8030000020200b038400401020006c0
            32020000020200b040400401020006c000000000020200b0c04004010200
            06c000000009020200b09c400401020006c00a241b00020200b0a4400401
            020006c003021b00020200b0ac400401020006c0141b3b00020200b0b040
            0401020006c00d000000020200b0a0400401020006c000000000020200b0
            98400401020006c000730000020200b090400401020006c00000c0000202
            00b090010502020006c01f000000020200b000860003020006c000000003
            020200b008860003020006c004000000020200b010860003020006c02700
            0000020200b040860003020006c000000010020200b048860003020006c0
            0c00ffff020200b0e4800003020006c00c00f0ff020200b0ec8000030200
            06c0aa115615020200b098800003020006c000000000020200b09c800003
            020006c000000000020200b0a0800003020006c024000080020200b0a880
            0003020006c00f003088020200b000010502020006c000080000020200b0
            08010502020006c008000000020200b008000502020006c00000401f0202
            00b008a00003020006c0ffff0000020200b034a00003020006c000900000
            020200b004a00003020006c0aa115615020200b084a00003020006c00700
            0700020200b04ca10003020006c000700000020200b0a0a00003020006c0
            10000000020200b0a4a00003020006c0ffff0000020200b02ca000030200
            06c000000000020200b000000501020006c000000000020200b000c00401
            020006c000000000020200b000000500020006c000000000020200b000c0
            0400020006c03f000000020200b04c800401020006c03f000000020200b0
            4c400401020006c01100e000020200b008000501020006c03e0000000202
            00b04c400401020006c002000000020200b078400401020006c011008000
            020200b008000501020006c03c000000020200b04c400401020006c00100
            0000020200b078400401020006c047030303020200b088800400020006c0
            00000000020200b06c800400020006c047030303020200b0884004000200
            06c000000000020200b06c400400020000d0000006c009000000000202b0
            00000000020000d0000000f0
            <crc>
                84af
            </crc>
        </region>
        <region name="INIT_STAGE_1_SNVM_CLIENT" address="0x0000ca" retrieveAddressFromFile="false" size="4360" format="HEX" type="PlainText NonAuthenticated" wordSize="8" numberWords="4360" memFile="designer\top\top_init_stage_1_snvm.mem" memType="Microsemi Binary 32-bit" memFileTimeStamp="" clientType="public" program="true">
            <write_protect/>
            <fabric_accessible/>
            <mss_accessible/>
            000010c032000000010010c032000000020010c032000000040010c03200
            0000000f11c0b80b0000ff3f0c1200000020000000000000000000000000
            000000000000000000000000000000000000000000000000000000000000
            000000000000000000000000000000000000000000000000000000000000
            000000000000000000000000000000000000000000000000000000000000
            000000000000000000000000000000000000000000000000000000000000
            000000000000000000000000000000000000000000000000000000000000
            000000000000000000000000000000000000000000000000000000000000
            000000000000000000000000000000000000000000000000000000000000
            000000000000000000000000000000000000000000000000000000000000
            000000000000000000000000000000000000000000000000000000000000
            000000000000000000000000000000000000000000000000000000000000
            000000000000000000000000000000000000000000000000000000000000
            000000000000000000000000000000000000000000000000000000000000
            000000000000000000000000000000000000000000000000000000000000
            000000000000000000000000000000000000000000000000000000000000
            000000000000000000000000000000000000000000000000000000000000
            000000000000000000000000000000000000000000000000000000000000
            000000000000000000000000000000000000000000000000000000000000
            000000000000000000000000000000000000000000000000000000000000
            000000000000000000000000000000000000000000000000000000000000
            000000000000000000000000000000000000000000000000000000000000
            000000000000000000000000000000000000000000000000000000000000
            000000000000000000000000000000000000000000000000000000000000
            000000000000000000000000000000000000000000000000000000000000
            000000000000000000000000000000000000000000000000000000000000
            000000000000000000000000000000000000000000000000000000000000
            000000000000000000000000000000000000000000000000000000000000
            000000000000000000000000000000000000000000000000000000000000
            000000000000000000000000000000000000000000000000000000000000
            000000000000000000000000000000000000000000000000000000000000
            000000000000000000000000000000000000000000000000000000000000
            000000000000000000000000000000000000000000000000000000000000
            000000000000000000000000000000000000000000000000000000000000
            000000000000000000000000000000000000000000000000000000000000
            000000000000000000000000000000000000000000000000000000000000
            000000000000000000000000000000000000000000000000000000000000
            000000000000000000000000000000000000000000000000000000000000
            000000000000000000000000000000000000000000000000000000000000
            000000000000000000000000000000000000000000000000000000000000
            000000000000000000000000000000000000000000000000000000000000
            000000000000000000000000000000000000000000000000000000000000
            000000000000000000000000000000000000000000000000000000000000
            000000000000000000000000000000000000000000000000000000000000
            000000000000000000000000000000000000000000000000000000000000
            000000000000000000000000000000000000000000000000000000000000
            000000000000000000000000000000000000000000000000000000000000
            000000000000000000000000000000000000000000000000000000000000
            000000000000000000000000000000000000000000000000000000000000
            000000000000000000000000000000000000000000000000000000000000
            000000000000000000000000000000000000000000000000000000000000
            000000000000000000000000000000000000000000000000000000000000
            000000000000000000000000000000000000000000000000000000000000
            000000000000000000000000000000000000000000000000000000000000
            000000000000000000000000000000000000000000000000000000000000
            000000000000000000000000000000000000000000000000000000000000
            000000000000000000000000000000000000000000000000000000000000
            000000000000000000000000000000000000000000000000000000000000
            000000000000000000000000000000000000000000000000000000000000
            000000000000000000000000000000000000000000000000000000000000
            000000000000000000000000000000000000000000000000000000000000
            000000000000000000000000000000000000000000000000000000000000
            000000000000000000000000000000000000000000000000000000000000
            000000000000000000000000000000000000000000000000000000000000
            000000000000000000000000000000000000000000000000000000000000
            000000000000000000000000000000000000000000000000000000000000
            000000000000000000000000000000000000000000000000000000000000
            000000000000000000000000000000000000000000000000000000000000
            000000000000000000000000000000000000000000000000000000000000
            000000000000000000000000000000000000000000000000000000000000
            000000000000000000000000000000000000000000000000000000000000
            000000000000000000000000000000000000000000000000000000000000
            000000000000000000000000000000000000000000000000000000000000
            000000000000000000000000000000000000000000000000000000000000
            000000000000000000000000000000000000000000000000000000000000
            000000000000000000000000000000000000000000000000000000000000
            000000000000000000000000000000000000000000000000000000000000
            000000000000000000000000000000000000000000000000000000000000
            000000000000000000000000000000000000000000000000000000000000
            000000000000000000000000000000000000000000000000000000000000
            000000000000000000000000000000000000000000000000000000000000
            000000000000000000000000000000000000000000000000000000000000
            000000000000000000000000000000000000000000000000000000000000
            000000000000000000000000000000000000000000000000000000000000
            000000000000000000000000000000000000000000000000000000000000
            000000000000000000000000000000000000000000000000000000000000
            000000000000000000000000000000000000000000000000000000000000
            000000000000000000000000000000000000000000000000000000000000
            000000000000000000000000000000000000000000000000000000000000
            000000000000000000000000000000000000000000000000000000000000
            000000000000000000000000000000000000000000000000000000000000
            000000000000000000000000000000000000000000000000000000000000
            000000000000000000000000000000000000000000000000000000000000
            000000000000000000000000000000000000000000000000000000000000
            000000000000000000000000000000000000000000000000000000000000
            000000000000000000000000000000000000000000000000000000000000
            000000000000000000000000000000000000000000000000000000000000
            000000000000000000000000000000000000000000000000000000000000
            000000000000000000000000000000000000000000000000000000000000
            000000000000000000000000000000000000000000000000000000000000
            000000000000000000000000000000000000000000000000000000000000
            000000000000000000000000000000000000000000000000000000000000
            000000000000000000000000000000000000000000000000000000000000
            000000000000000000000000000000000000000000000000000000000000
            000000000000000000000000000000000000000000000000000000000000
            000000000000000000000000000000000000000000000000000000000000
            000000000000000000000000000000000000000000000000000000000000
            000000000000000000000000000000000000000000000000000000000000
            000000000000000000000000000000000000000000000000000000000000
            000000000000000000000000000000000000000000000000000000000000
            000000000000000000000000000000000000000000000000000000000000
            000000000000000000000000000000000000000000000000000000000000
            000000000000000000000000000000000000000000000000000000000000
            000000000000000000000000000000000000000000000000000000000000
            000000000000000000000000000000000000000000000000000000000000
            000000000000000000000000000000000000000000000000000000000000
            000000000000000000000000000000000000000000000000000000000000
            000000000000000000000000000000000000000000000000000000000000
            000000000000000000000000000000000000000000000000000000000000
            000000000000000000000000000000000000000000000000000000000000
            000000000000000000000000000000000000000000000000000000000000
            000000000000000000000000000000000000000000000000000000000000
            000000000000000000000000000000000000000000000000000000000000
            000000000000000000000000000000000000000000000000000000000000
            000000000000000000000000000000000000000000000000000000000000
            000000000000000000000000000000000000000000000000000000000000
            000000000000000000000000000000000000000000000000000000000000
            000000000000000000000000000000000000000000000000000000000000
            000000000000000000000000000000000000000000000000000000000000
            000000000000000000000000000000000000000000000000000000000000
            000000000000000000000000000000000000000000000000000000000000
            000000000000000000000000000000000000000000000000000000000000
            000000000000000000000000000000000000000000000000000000000000
            000000000000000000000000000000000000000000000000000000000000
            000000000000000000000000000000000000000000000000000000000000
            000000000000000000000000000000000000000000000000000000000000
            000000000000000000000000000000000000000000000000000000000000
            000000000000000000000000000000000000000000000000000000000000
            00000000ff3f0c32ff3f0c42ff3f0c520100002000000000000000000000
            000000000000000000000000000000000000000000000000000000000000
            000000000000000000000000000000000000000000000000000000000000
            000000000000000000000000000000000000000000000000000000000000
            00000000000000000000000000000000000000000000000000000000ff3f
            0c62ff3f0c72000006c001000000000202b000000000020006c004040404
            020200b048600003020006c000000700020200b04c610003000006c00000
            0000030000e000000000
            <crc>
                8616
            </crc>
        </region>
    </nvm>
</Actel_Data_File>
